"Time (s)","X (µT)","Y (µT)","Z (µT)"
1.183837501E-2,-1.786246490E1,3.936794662E1,3.523246765E0
2.183237497E-2,-1.766988373E1,3.951525497E1,3.340370178E0
3.182537499E-2,-1.747382355E1,3.957817841E1,3.216293335E0
4.181837500E-2,-1.700576782E1,3.984534073E1,2.962913513E0
5.181137496E-2,-1.674771118E1,4.008212662E1,2.792449951E0
6.180437497E-2,-1.642947388E1,4.011160660E1,2.847518921E0
7.179737499E-2,-1.623489380E1,4.031540298E1,2.858146667E0
8.179037500E-2,-1.610884094E1,4.044956589E1,3.198570251E0
9.178337496E-2,-1.593218994E1,4.041424179E1,3.437934875E0
1.017763750E-1,-1.570993805E1,4.061222458E1,3.513626099E0
1.117693750E-1,-1.543638611E1,4.081655121E1,3.955612183E0
1.217623750E-1,-1.511730957E1,4.079302979E1,4.379104614E0
1.317553750E-1,-1.482653809E1,4.091010284E1,4.748390198E0
1.417483750E-1,-1.470639038E1,4.081000519E1,5.060089111E0
1.517413750E-1,-1.470961761E1,4.086002350E1,5.908966064E0
1.617343750E-1,-1.500060272E1,4.060646820E1,6.965789795E0
1.717283750E-1,-1.524158478E1,4.018152237E1,7.995361328E0
1.817213750E-1,-1.561139679E1,3.994325256E1,9.151290894E0
1.917143750E-1,-1.610747528E1,3.947570801E1,1.043700409E1
2.017073750E-1,-1.662193298E1,3.896711731E1,1.219397736E1
2.117003750E-1,-1.703422546E1,3.815219116E1,1.384197235E1
2.216933750E-1,-1.743232727E1,3.723417664E1,1.585414124E1
2.316863750E-1,-1.758953094E1,3.618464661E1,1.781764984E1
2.416793750E-1,-1.758953094E1,3.618464661E1,1.781764984E1
2.516723750E-1,-1.765264893E1,3.511855316E1,1.999075317E1
2.616653750E-1,-1.750769806E1,3.414811325E1,2.165691376E1
2.716583750E-1,-1.757036591E1,3.346082306E1,2.310247803E1
2.816513750E-1,-1.766812134E1,3.274079514E1,2.410336304E1
2.916443750E-1,-1.795308685E1,3.213822174E1,2.480289459E1
3.016373750E-1,-1.843454742E1,3.165824890E1,2.515084076E1
3.116303750E-1,-1.904074860E1,3.123727036E1,2.506853485E1
3.216233750E-1,-1.941537476E1,3.109593010E1,2.487911224E1
3.316173750E-1,-1.987313080E1,3.070849800E1,2.522409821E1
3.416103750E-1,-1.970793915E1,3.047145271E1,2.572662354E1
3.516033750E-1,-1.942504120E1,3.015265846E1,2.637060547E1
3.615963750E-1,-1.921174622E1,2.999209595E1,2.676618195E1
3.715893750E-1,-1.899526215E1,2.966415405E1,2.725541687E1
3.815823750E-1,-1.895999146E1,2.944262314E1,2.744786835E1
3.915753750E-1,-1.897138977E1,2.923195457E1,2.782743835E1
4.015683750E-1,-1.913334656E1,2.913268852E1,2.814752197E1
4.115613750E-1,-1.924526215E1,2.888547325E1,2.803730774E1
4.215543750E-1,-1.961148071E1,2.870554924E1,2.803620911E1
4.315473750E-1,-2.004952240E1,2.860760880E1,2.795751190E1
4.415403750E-1,-2.050714111E1,2.843750954E1,2.796240234E1
4.515333750E-1,-2.076936340E1,2.850249290E1,2.767502594E1
4.615263750E-1,-2.095224762E1,2.855071259E1,2.752718353E1
4.715193750E-1,-2.099131775E1,2.864554214E1,2.738231659E1
4.815123750E-1,-2.108602905E1,2.894849968E1,2.727445221E1
4.915053750E-1,-2.104788208E1,2.945480347E1,2.673240662E1
5.014983750E-1,-2.104788208E1,2.945480347E1,2.673240662E1
5.114923750E-1,-2.083972168E1,2.990334892E1,2.647467804E1
5.214853750E-1,-2.057270050E1,3.030015564E1,2.598449707E1
5.314783750E-1,-2.015541840E1,3.114512634E1,2.549172211E1
5.414713750E-1,-1.968675995E1,3.163995552E1,2.510964203E1
5.514643750E-1,-1.915821838E1,3.273144150E1,2.424149323E1
5.614573750E-1,-1.845976257E1,3.355576324E1,2.350888824E1
5.714503750E-1,-1.808218384E1,3.429437256E1,2.303383636E1
5.814433750E-1,-1.756751251E1,3.493534851E1,2.260310364E1
5.914363750E-1,-1.719460297E1,3.527187347E1,2.214572906E1
6.014293750E-1,-1.705847168E1,3.558409500E1,2.211361694E1
6.114223750E-1,-1.666483307E1,3.552482605E1,2.227198029E1
6.214153750E-1,-1.608855438E1,3.541302109E1,2.249626160E1
6.314083750E-1,-1.563009644E1,3.559487152E1,2.282653046E1
6.414013750E-1,-1.529833984E1,3.556635284E1,2.275502777E1
6.513943750E-1,-1.508911896E1,3.585693741E1,2.284749603E1
6.613883750E-1,-1.481639099E1,3.591543198E1,2.236763763E1
6.713813750E-1,-1.487115479E1,3.651032257E1,2.194169617E1
6.813743750E-1,-1.484062958E1,3.671364594E1,2.123375702E1
6.913673750E-1,-1.486431885E1,3.729501343E1,2.085697937E1
7.013603750E-1,-1.508743286E1,3.742480087E1,2.004706573E1
7.113533750E-1,-1.501454926E1,3.758432770E1,1.938229370E1
7.213462917E-1,-1.470343018E1,3.796067047E1,1.923807526E1
7.313392917E-1,-1.401011658E1,3.834684753E1,1.943891907E1
7.413322916E-1,-1.298203278E1,3.869528198E1,1.943391418E1
7.513252916E-1,-1.218080902E1,3.903053284E1,1.989001465E1
7.613182917E-1,-1.218080902E1,3.903053284E1,1.989001465E1
7.713112917E-1,-1.143170166E1,3.891651154E1,2.015290070E1
7.813042916E-1,-1.081854248E1,3.898773193E1,2.011824036E1
7.912972916E-1,-1.021627808E1,3.922391891E1,2.042189789E1
8.012902917E-1,-9.758491516E0,3.939687347E1,2.046347809E1
8.112832917E-1,-9.706672668E0,3.938547897E1,2.054443359E1
8.212762916E-1,-9.592483521E0,3.938619995E1,2.062467957E1
8.312702916E-1,-9.714035034E0,3.937200546E1,2.082164001E1
8.412632917E-1,-9.967063904E0,3.901662445E1,2.118305206E1
8.512562917E-1,-1.009221649E1,3.893920135E1,2.176564026E1
8.612492916E-1,-9.703147888E0,3.879050827E1,2.183356476E1
8.712422916E-1,-9.492240906E0,3.873172379E1,2.210860443E1
8.812352917E-1,-9.367637634E0,3.864080811E1,2.214890289E1
8.912282917E-1,-9.084823608E0,3.878456879E1,2.219223785E1
9.012212916E-1,-8.611381531E0,3.888825226E1,2.174339294E1
9.112142916E-1,-8.272796631E0,3.937486649E1,2.132027435E1
9.212072917E-1,-7.881019592E0,3.952529526E1,2.098307800E1
9.312002917E-1,-7.359237671E0,3.976462936E1,2.052336884E1
9.411932916E-1,-6.937751770E0,4.007789612E1,2.008293915E1
9.511862916E-1,-6.427299500E0,4.047436142E1,1.981500244E1
9.611792917E-1,-6.030685425E0,4.060786438E1,1.955552673E1
9.711722917E-1,-5.535774231E0,4.086497879E1,1.944187164E1
9.811652916E-1,-5.005157471E0,4.104363632E1,1.906547546E1
9.911582916E-1,-4.566436768E0,4.115302658E1,1.898764038E1
1.001152292E0,-4.165771484E0,4.143332672E1,1.878675079E1
1.011145292E0,-3.786338806E0,4.157762909E1,1.838814545E1
1.021138292E0,-3.786338806E0,4.157762909E1,1.838814545E1
1.031131292E0,-3.453895569E0,4.168510056E1,1.819948578E1
1.041124292E0,-3.140663147E0,4.183223724E1,1.746027374E1
1.051117292E0,-2.876716614E0,4.220506668E1,1.739649200E1
1.061110292E0,-2.691329956E0,4.244092178E1,1.632043457E1
1.071103292E0,-2.561508179E0,4.289013290E1,1.495675659E1
1.081096292E0,-2.496627808E0,4.330955887E1,1.352922058E1
1.091089292E0,-2.361091614E0,4.383225632E1,1.225962067E1
1.101082292E0,-2.172149658E0,4.397671890E1,1.135948944E1
1.111075292E0,-1.779823303E0,4.410154724E1,1.104537201E1
1.121068292E0,-1.623039246E0,4.407258606E1,1.115810394E1
1.131061292E0,-1.312118530E0,4.388056946E1,1.156835938E1
1.141054292E0,-1.063163757E0,4.387991333E1,1.160314178E1
1.151047292E0,-7.056732178E-1,4.406201172E1,1.165849304E1
1.161041292E0,-3.924255371E-1,4.413178253E1,1.153104401E1
1.171034292E0,-2.402648926E-1,4.407899475E1,1.132883453E1
1.181027292E0,-2.848434448E-1,4.420306396E1,1.094472504E1
1.191020292E0,-1.120529175E-1,4.436860275E1,1.043553925E1
1.201013292E0,-1.188964844E-1,4.449458313E1,1.019802856E1
1.211006292E0,-1.304626465E-2,4.444706345E1,9.904266357E0
1.220999292E0,-1.687240601E-1,4.457424545E1,1.023023224E1
1.230992292E0,-1.585922241E-1,4.457490158E1,1.014913940E1
1.240985292E0,-9.105682373E-2,4.452867126E1,1.025349426E1
1.250978292E0,-2.066040039E-2,4.443007660E1,1.043716431E1
1.260971292E0,8.708953857E-2,4.437981033E1,1.073273468E1
1.270964292E0,3.586120605E-1,4.417451859E1,1.130230713E1
1.280957292E0,3.586120605E-1,4.417451859E1,1.130230713E1
1.290950292E0,7.089004517E-1,4.406381226E1,1.174700928E1
1.300943292E0,9.290466309E-1,4.388125992E1,1.269020844E1
1.310936292E0,1.063758850E0,4.373754501E1,1.343398285E1
1.320929292E0,1.075439453E0,4.325243759E1,1.466808319E1
1.330923292E0,8.287200928E-1,4.291896439E1,1.583180237E1
1.340916292E0,6.578903198E-1,4.246380615E1,1.743675232E1
1.350909292E0,1.621322632E-1,4.181229401E1,1.913553619E1
1.360902292E0,-2.343597412E-1,4.109799957E1,2.037467957E1
1.370895292E0,-5.631103516E-1,4.030686569E1,2.193527985E1
1.380888292E0,-7.109603882E-1,3.953426361E1,2.346127319E1
1.390881292E0,-8.434600830E-1,3.874939728E1,2.460694122E1
1.400874292E0,-9.027709961E-1,3.785796738E1,2.612869263E1
1.410867292E0,-7.488250732E-1,3.676632309E1,2.772441101E1
1.420860292E0,-6.129837036E-1,3.529109192E1,2.966889191E1
1.430853292E0,-6.162338257E-1,3.390571976E1,3.107706451E1
1.440846292E0,-6.088333130E-1,3.273625183E1,3.273438263E1
1.450839292E0,-7.199554443E-1,3.163302422E1,3.372206116E1
1.460832292E0,-1.003288269E0,3.090264511E1,3.462960815E1
1.470825292E0,-1.183609009E0,3.028247452E1,3.529690552E1
1.480818292E0,-1.275321960E0,2.972929001E1,3.576223755E1
1.490811292E0,-1.301277161E0,2.925902939E1,3.633310699E1
1.500805292E0,-9.177780151E-1,2.888079071E1,3.674377441E1
1.510798292E0,-4.089813232E-1,2.847469711E1,3.685641479E1
1.520791292E0,3.293075562E-1,2.782353592E1,3.740972137E1
1.530784292E0,1.048385620E0,2.735240746E1,3.785971069E1
1.540777292E0,1.048385620E0,2.735240746E1,3.785971069E1
1.550770292E0,1.737602234E0,2.678527069E1,3.833608246E1
1.560763292E0,2.031112671E0,2.629917336E1,3.859226990E1
1.570756292E0,2.020439148E0,2.597586441E1,3.881162262E1
1.580749292E0,1.992141724E0,2.539034653E1,3.889447784E1
1.590742292E0,1.676399231E0,2.501540375E1,3.924495697E1
1.600735292E0,1.307289124E0,2.446871185E1,3.935614777E1
1.610728292E0,9.135131836E-1,2.415176964E1,3.975563812E1
1.620721292E0,4.541702271E-1,2.385554695E1,4.034220886E1
1.630714292E0,1.159896851E-1,2.374355507E1,4.037200165E1
1.640707292E0,-2.871246338E-1,2.358428192E1,4.065363312E1
1.650700292E0,-8.424377441E-1,2.398671341E1,4.046041107E1
1.660693292E0,-1.290412903E0,2.426169205E1,4.028412628E1
1.670686292E0,-1.683326721E0,2.465800285E1,4.003250122E1
1.680680292E0,-2.086631775E0,2.523820877E1,3.969931030E1
1.690673292E0,-2.396034241E0,2.591194916E1,3.893949890E1
1.700666292E0,-2.643249512E0,2.678945541E1,3.858336639E1
1.710659292E0,-2.593894958E0,2.765832520E1,3.805459595E1
1.720652750E0,-2.436309814E0,2.848500061E1,3.730193329E1
1.730645750E0,-1.910514832E0,2.913501167E1,3.650179291E1
1.740638750E0,-1.332374573E0,3.004147148E1,3.584642029E1
1.750631750E0,-5.870513916E-1,3.099287605E1,3.505934143E1
1.760624750E0,1.267700195E-1,3.175310516E1,3.433480835E1
1.770617750E0,6.743621826E-1,3.256489563E1,3.331946564E1
1.780610750E0,1.132530212E0,3.307728958E1,3.300666809E1
1.790603750E0,1.454406738E0,3.343242645E1,3.243820953E1
1.800596750E0,1.454406738E0,3.343242645E1,3.243820953E1
1.810589750E0,1.323455811E0,3.392579651E1,3.210750580E1
1.820582750E0,8.568344116E-1,3.422947693E1,3.192406464E1
1.830575750E0,1.547393799E-1,3.441388702E1,3.161947632E1
1.840568750E0,-5.285949707E-1,3.471185303E1,3.151584625E1
1.850561750E0,-8.415374756E-1,3.495742798E1,3.134249878E1
1.860555750E0,-1.065101624E0,3.517398834E1,3.089627838E1
1.870548750E0,-9.782028198E-1,3.557197571E1,3.053459930E1
1.880541750E0,-8.784179688E-1,3.605287933E1,2.975032043E1
1.890534750E0,-3.175277710E-1,3.660734940E1,2.910213470E1
1.900527750E0,3.331298828E-1,3.721736145E1,2.842998505E1
1.910520750E0,1.101417542E0,3.791894150E1,2.763385010E1
1.920513750E0,1.790252686E0,3.828263092E1,2.676429749E1
1.930506750E0,2.391151428E0,3.900009918E1,2.584225464E1
1.940499750E0,3.125381470E0,3.947250366E1,2.502063751E1
1.950492750E0,3.815330505E0,3.999833679E1,2.420706940E1
1.960485750E0,4.481880188E0,4.027657318E1,2.325052643E1
1.970478750E0,4.989547729E0,4.075550461E1,2.281987762E1
1.980471750E0,5.442512512E0,4.101805496E1,2.197436523E1
1.990464750E0,5.837791443E0,4.134434891E1,2.170426178E1
2.000457750E0,6.074371338E0,4.142990112E1,2.140864563E1
2.010450750E0,6.571701050E0,4.141708374E1,2.127511597E1
2.020443750E0,6.799972534E0,4.127879715E1,2.130287170E1
2.030436750E0,7.206138611E0,4.123532486E1,2.133634186E1
2.040429750E0,7.802444458E0,4.133450317E1,2.120351410E1
2.050423750E0,8.357711792E0,4.163232040E1,2.079576874E1
2.060416750E0,8.357711792E0,4.163232040E1,2.079576874E1
2.070409750E0,9.076683044E0,4.168049240E1,1.998642731E1
2.080402750E0,9.554756165E0,4.166889954E1,1.939597321E1
2.090395750E0,9.900154114E0,4.201080704E1,1.883706665E1
2.100388750E0,1.027225494E1,4.200938416E1,1.840853119E1
2.110381750E0,1.058196259E1,4.226177979E1,1.767179871E1
2.120374750E0,1.091367340E1,4.226780319E1,1.719305420E1
2.130367750E0,1.138129425E1,4.245759964E1,1.678993225E1
2.140360750E0,1.159432220E1,4.232561874E1,1.605928802E1
2.150353750E0,1.202068329E1,4.244307327E1,1.556957245E1
2.160346750E0,1.246656036E1,4.236325073E1,1.528190613E1
2.170339750E0,1.325560760E1,4.238108444E1,1.508899689E1
2.180332750E0,1.387410736E1,4.241819763E1,1.456963348E1
2.190325750E0,1.446695709E1,4.245722961E1,1.397133636E1
2.200318750E0,1.480533600E1,4.242369461E1,1.340643311E1
2.210311750E0,1.513640594E1,4.249796295E1,1.274583435E1
2.220304750E0,1.557848358E1,4.257100296E1,1.209811401E1
2.230298750E0,1.565856171E1,4.256320190E1,1.159092712E1
2.240291750E0,1.574170685E1,4.257688904E1,1.113281250E1
2.250284750E0,1.587689972E1,4.285786438E1,1.072889709E1
2.260277750E0,1.570073700E1,4.296322250E1,1.025471497E1
2.270270750E0,1.557007599E1,4.304830170E1,1.002238464E1
2.280263750E0,1.540482330E1,4.311487198E1,9.739494324E0
2.290256750E0,1.526865387E1,4.344399643E1,9.355545044E0
2.300249750E0,1.509778595E1,4.361416626E1,8.996192932E0
2.310242750E0,1.489916229E1,4.359165573E1,8.566352844E0
2.320235750E0,1.489916229E1,4.359165573E1,8.566352844E0
2.330228750E0,1.476273346E1,4.367856979E1,7.978065491E0
2.340221750E0,1.482442474E1,4.387142181E1,7.741043091E0
2.350214750E0,1.471244049E1,4.395065308E1,7.193382263E0
2.360207750E0,1.481494904E1,4.390304565E1,6.856330872E0
2.370200750E0,1.505284882E1,4.407403183E1,6.253158569E0
2.380193750E0,1.505779266E1,4.399281693E1,5.873931885E0
2.390186750E0,1.517026520E1,4.402074432E1,5.521820068E0
2.400179750E0,1.521489716E1,4.406016541E1,5.205513000E0
2.410172750E0,1.532930756E1,4.411323547E1,4.874023438E0
2.420166750E0,1.539376068E1,4.394261551E1,4.770225525E0
2.430159750E0,1.547547150E1,4.416983795E1,4.619781494E0
2.440152750E0,1.554790497E1,4.392169952E1,4.594093323E0
2.450145750E0,1.574037933E1,4.394171143E1,4.785530090E0
2.460138750E0,1.570438385E1,4.389749908E1,4.993896484E0
2.470131750E0,1.589563751E1,4.393256378E1,5.171257019E0
2.480124750E0,1.599491119E1,4.383815384E1,5.534584045E0
2.490117750E0,1.640285492E1,4.363777542E1,5.798568726E0
2.500110750E0,1.668117523E1,4.341445160E1,6.416244507E0
2.510103750E0,1.701755524E1,4.332814026E1,7.163627625E0
2.520096750E0,1.729376984E1,4.302932358E1,8.345611572E0
2.530089750E0,1.753743744E1,4.278535080E1,9.153015137E0
2.540082750E0,1.754036713E1,4.239740753E1,1.060459900E1
2.550075750E0,1.747487640E1,4.217201614E1,1.200447845E1
2.560068750E0,1.726290131E1,4.181728363E1,1.343994141E1
2.570061750E0,1.694867706E1,4.165681076E1,1.448249054E1
2.580054750E0,1.694867706E1,4.165681076E1,1.448249054E1
2.590047750E0,1.674170685E1,4.153857803E1,1.523060608E1
2.600040750E0,1.660532379E1,4.141144562E1,1.594803619E1
2.610034750E0,1.608058929E1,4.119778824E1,1.684045410E1
2.620027750E0,1.576467133E1,4.103992844E1,1.798800659E1
2.630020750E0,1.555937958E1,4.066381836E1,1.913036346E1
2.640013750E0,1.537407684E1,3.992302322E1,2.063507080E1
2.650006750E0,1.517838287E1,3.938034058E1,2.202500153E1
2.659999750E0,1.464275360E1,3.873674011E1,2.318992615E1
2.669992750E0,1.416320038E1,3.823917389E1,2.407273102E1
2.679985750E0,1.350279999E1,3.805252457E1,2.485035706E1
2.689978750E0,1.305399323E1,3.779827499E1,2.545128632E1
2.699971750E0,1.270496368E1,3.742143250E1,2.616574097E1
2.709964750E0,1.258783722E1,3.710345840E1,2.656818390E1
2.719957750E0,1.291692352E1,3.676686859E1,2.718865967E1
2.729950125E0,1.314572906E1,3.649385071E1,2.769271851E1
2.739943125E0,1.349893951E1,3.599431992E1,2.780197906E1
2.749936125E0,1.387531281E1,3.559419250E1,2.839617920E1
2.759929125E0,1.419245148E1,3.516322708E1,2.889691925E1
2.769922125E0,1.433771515E1,3.474460602E1,2.935311127E1
2.779915125E0,1.416387177E1,3.422751617E1,2.988691711E1
2.789908125E0,1.421802521E1,3.378087997E1,3.044358063E1
2.799901125E0,1.374819183E1,3.331237793E1,3.106070709E1
2.809894125E0,1.341068268E1,3.281840515E1,3.164586639E1
2.819888125E0,1.293074799E1,3.258786774E1,3.232346344E1
2.829881125E0,1.245146942E1,3.222489166E1,3.256961060E1
2.839874125E0,1.245146942E1,3.222489166E1,3.256961060E1
2.849867125E0,1.211412811E1,3.216568756E1,3.303973389E1
2.859860125E0,1.173581696E1,3.211312866E1,3.310935211E1
2.869853125E0,1.144745636E1,3.228182220E1,3.304486084E1
2.879846125E0,1.125142670E1,3.247336578E1,3.297425079E1
2.889839125E0,1.125043488E1,3.280084991E1,3.267987823E1
2.899832125E0,1.165401459E1,3.319342422E1,3.216811371E1
2.909825125E0,1.175032806E1,3.350625992E1,3.192961121E1
2.919818125E0,1.201142120E1,3.418632126E1,3.089466858E1
2.929811125E0,1.249413300E1,3.487600708E1,3.003358459E1
2.939804125E0,1.307901764E1,3.563573456E1,2.869091034E1
2.949797125E0,1.402170563E1,3.632661057E1,2.708956909E1
2.959790125E0,1.507654572E1,3.686768341E1,2.550263977E1
2.969783125E0,1.611064911E1,3.757437515E1,2.418280029E1
2.979776125E0,1.677875519E1,3.783739090E1,2.332714844E1
2.989769125E0,1.792212677E1,3.777407455E1,2.265679169E1
2.999762125E0,1.906249237E1,3.749237823E1,2.208821106E1
3.009755125E0,2.007015228E1,3.741044617E1,2.157379913E1
3.019749125E0,2.087465668E1,3.712560272E1,2.110541534E1
3.029742125E0,2.146024323E1,3.730092621E1,2.009629822E1
3.039735125E0,2.185195160E1,3.748458099E1,1.915979004E1
3.049728125E0,2.200284576E1,3.787771225E1,1.834451294E1
3.059721125E0,2.172977448E1,3.841279221E1,1.711308289E1
3.069714125E0,2.151062775E1,3.901522446E1,1.620057678E1
3.079707125E0,2.082099152E1,4.001188660E1,1.462566376E1
3.089700125E0,1.998975372E1,4.086191177E1,1.362159729E1
3.099693125E0,1.998975372E1,4.086191177E1,1.362159729E1
3.109686125E0,1.893201447E1,4.159965134E1,1.324732971E1
3.119679125E0,1.825618744E1,4.190132523E1,1.303462982E1
3.129672125E0,1.786486053E1,4.199049377E1,1.305229950E1
3.139665125E0,1.797959137E1,4.183380127E1,1.307150269E1
3.149658125E0,1.852895355E1,4.153831482E1,1.287831879E1
3.159651125E0,1.886759186E1,4.159709549E1,1.282576752E1
3.169644125E0,1.911821747E1,4.172371674E1,1.233309937E1
3.179637125E0,1.922397614E1,4.181975937E1,1.164749146E1
3.189630125E0,1.932917023E1,4.197324753E1,1.080197906E1
3.199623125E0,1.956519318E1,4.193343735E1,9.897903442E0
3.209616125E0,1.990019989E1,4.197202682E1,9.244163513E0
3.219610125E0,2.003810883E1,4.188831329E1,8.777290344E0
3.229603125E0,2.046598053E1,4.196677017E1,8.132438660E0
3.239596125E0,2.071030426E1,4.190084457E1,7.470352173E0
3.249589125E0,2.113642120E1,4.183047867E1,7.066970825E0
3.259582125E0,2.115316010E1,4.187865829E1,6.306053162E0
3.269575125E0,2.141458893E1,4.190163803E1,5.819679260E0
3.279568125E0,2.155040741E1,4.179329681E1,5.065795898E0
3.289561125E0,2.176467133E1,4.186270523E1,4.031532288E0
3.299554125E0,2.207228851E1,4.170353317E1,3.304801941E0
3.309547125E0,2.245673370E1,4.170259476E1,2.318283081E0
3.319540125E0,2.285424042E1,4.138972473E1,1.568252563E0
3.329533125E0,2.314089203E1,4.131310272E1,3.666992188E-1
3.339526125E0,2.353096771E1,4.115845871E1,-7.518768311E-1
3.349519125E0,2.381314850E1,4.082126236E1,-1.703109741E0
3.359512125E0,2.381314850E1,4.082126236E1,-1.703109741E0
3.369505125E0,2.409966278E1,4.052461624E1,-2.962463379E0
3.379498125E0,2.449243927E1,4.013748550E1,-3.798362732E0
3.389491125E0,2.500318146E1,3.978654099E1,-4.692253113E0
3.399484125E0,2.530373383E1,3.936876297E1,-6.032989502E0
3.409477125E0,2.540717316E1,3.898773575E1,-7.247703552E0
3.419470125E0,2.541919708E1,3.879991150E1,-8.457065582E0
3.429463125E0,2.565407562E1,3.859044266E1,-9.142219543E0
3.439457125E0,2.584908295E1,3.823674774E1,-9.900760651E0
3.449450125E0,2.628778839E1,3.784772491E1,-1.021025467E1
3.459443125E0,2.649860382E1,3.780156326E1,-1.041233444E1
3.469436125E0,2.659944916E1,3.763092041E1,-1.062226868E1
3.479429125E0,2.629006195E1,3.755242157E1,-1.103282547E1
3.489422125E0,2.619461823E1,3.770298767E1,-1.156025696E1
3.499415125E0,2.621741486E1,3.765884018E1,-1.165653992E1
